Current (mA)
4.91355
4.9379
4.89772
4.90868
4.91233
4.9452
4.91963
4.90989
17.2452
5.05964
5.06208
5.05112
5.06938
5.02555
5.0706
5.06451
5.08277 
5.05964
5.06938
5.05112 
5.05112
5.0779
5.06451
5.05842
5.06573
5.05964
5.09738
5.05964
5.0706
5.07669
5.05721
5.04503
5.06816
5.0146
5.05721
5.06938
4.90137
4.91233
17.2196
5.05721
5.06816
5.06938
5.06329
5.08521 
5.05112 
5.05112
5.07547
5.04868 
5.05599
5.04868
5.06208 
5.03773 
5.06208
5.05842 
5.08034
5.06695
5.08399 
5.07425
5.07425
5.05234
5.04016
5.05842
5.04016
5.06938
5.06086
4.90868 
4.88189
4.90624
4.90989
4.89772
4.9172
4.8965